X(ms)	FEx_Ip(kA)   
2.547604E+000	3.855855E+000
5.872843E+000	1.196776E+001
9.198083E+000	2.268777E+001
1.252332E+001	3.055909E+001
1.584856E+001	3.963403E+001
1.917380E+001	5.080867E+001
2.249904E+001	5.877974E+001
2.582428E+001	6.723670E+001
2.914952E+001	7.873615E+001
3.247476E+001	8.397238E+001
3.580000E+001	8.799410E+001
3.912524E+001	8.911228E+001
4.245048E+001	9.256547E+001
4.577572E+001	9.591386E+001
4.910096E+001	9.973959E+001
5.242620E+001	1.030649E+002
5.575144E+001	1.060954E+002
5.907668E+001	1.125864E+002
6.240192E+001	1.148478E+002
6.572716E+001	1.134055E+002
6.905240E+001	1.189769E+002
7.237764E+001	1.216356E+002
7.570288E+001	1.229475E+002
7.902812E+001	1.257554E+002
8.235335E+001	1.280777E+002
8.567859E+001	1.271730E+002
8.900383E+001	1.288518E+002
9.232907E+001	1.291134E+002
9.565431E+001	1.284834E+002
9.897955E+001	1.283414E+002
1.023048E+002	1.263027E+002
1.056300E+002	1.270416E+002
1.089553E+002	1.290083E+002
1.122805E+002	1.326257E+002
1.156058E+002	1.333978E+002
1.189310E+002	1.346099E+002
1.222562E+002	1.378286E+002
1.255815E+002	1.413351E+002
1.289067E+002	1.438272E+002
1.322319E+002	1.446964E+002
1.355572E+002	1.435389E+002
1.388824E+002	1.432193E+002
1.422077E+002	1.469626E+002
1.455329E+002	1.484189E+002
1.488581E+002	1.494793E+002
1.521834E+002	1.518413E+002
1.555086E+002	1.522822E+002
1.588339E+002	1.536277E+002
1.621591E+002	1.531461E+002
1.654843E+002	1.521606E+002
1.688096E+002	1.504523E+002
1.721348E+002	1.474019E+002
1.754601E+002	1.455829E+002
1.787853E+002	1.444465E+002
1.821105E+002	1.452251E+002
1.854358E+002	1.443116E+002
1.887610E+002	1.447294E+002
1.920863E+002	1.466632E+002
1.954115E+002	1.464214E+002
1.987367E+002	1.470416E+002
2.020620E+002	1.481078E+002
2.053872E+002	1.488680E+002
2.087125E+002	1.482890E+002
2.120377E+002	1.498723E+002
2.153629E+002	1.501418E+002
2.186882E+002	1.489946E+002
2.220134E+002	1.484609E+002
2.253387E+002	1.491307E+002
2.286639E+002	1.492931E+002
2.319891E+002	1.485211E+002
2.353144E+002	1.487712E+002
2.386396E+002	1.471404E+002
2.419649E+002	1.483720E+002
2.452901E+002	1.487442E+002
2.486153E+002	1.479546E+002
2.519406E+002	1.481982E+002
2.552658E+002	1.474132E+002
2.585911E+002	1.489351E+002
2.619163E+002	1.478657E+002
2.652415E+002	1.488369E+002
2.685668E+002	1.479516E+002
2.718920E+002	1.476533E+002
2.752173E+002	1.481804E+002
2.785425E+002	1.488994E+002
2.818677E+002	1.484667E+002
2.851930E+002	1.493715E+002
2.885182E+002	1.483026E+002
2.918435E+002	1.477566E+002
2.951687E+002	1.490558E+002
2.984939E+002	1.497504E+002
3.018192E+002	1.485887E+002
3.051444E+002	1.484327E+002
3.084696E+002	1.477554E+002
3.117949E+002	1.482648E+002
3.151201E+002	1.475679E+002
3.184454E+002	1.490185E+002
3.217706E+002	1.475129E+002
3.250958E+002	1.485669E+002
3.284211E+002	1.479166E+002
3.317463E+002	1.483049E+002
3.350716E+002	1.472943E+002
3.383968E+002	1.483737E+002
3.417220E+002	1.475751E+002
3.450473E+002	1.477654E+002
3.483725E+002	1.485913E+002
3.516978E+002	1.476275E+002
3.550230E+002	1.481906E+002
3.583482E+002	1.479818E+002
3.616735E+002	1.474627E+002
3.649987E+002	1.480248E+002
3.683240E+002	1.484488E+002
3.716492E+002	1.485919E+002
3.749744E+002	1.483750E+002
3.782997E+002	1.500571E+002
3.816249E+002	1.493956E+002
3.849502E+002	1.490525E+002
3.882754E+002	1.503977E+002
3.916006E+002	1.482236E+002
3.949259E+002	1.480188E+002
3.982511E+002	1.482683E+002
4.015764E+002	1.477964E+002
4.049016E+002	1.465304E+002
4.082268E+002	1.483040E+002
4.115521E+002	1.487797E+002
4.148773E+002	1.482937E+002
4.182026E+002	1.492536E+002
4.215278E+002	1.486110E+002
4.248530E+002	1.484372E+002
4.281783E+002	1.492090E+002
4.315035E+002	1.485587E+002
4.348288E+002	1.476377E+002
4.381540E+002	1.484948E+002
4.414792E+002	1.479834E+002
4.448045E+002	1.470102E+002
4.481297E+002	1.465420E+002
4.514550E+002	1.474904E+002
4.547802E+002	1.474189E+002
4.581054E+002	1.482040E+002
4.614307E+002	1.474419E+002
4.647559E+002	1.480195E+002
4.680812E+002	1.476905E+002
4.714064E+002	1.479801E+002
4.747316E+002	1.484838E+002
4.780569E+002	1.487758E+002
4.813821E+002	1.492858E+002
4.847073E+002	1.480648E+002
4.880326E+002	1.482329E+002
4.913578E+002	1.476255E+002
4.946831E+002	1.484103E+002
4.980083E+002	1.475413E+002
5.013335E+002	1.482496E+002
5.046588E+002	1.473140E+002
5.079840E+002	1.477866E+002
5.113093E+002	1.471282E+002
5.146345E+002	1.469025E+002
5.179597E+002	1.474520E+002
5.212850E+002	1.490365E+002
5.246102E+002	1.482106E+002
5.279355E+002	1.478980E+002
5.312607E+002	1.487799E+002
5.345859E+002	1.478208E+002
5.379112E+002	1.482609E+002
5.412364E+002	1.489245E+002
5.445617E+002	1.483844E+002
5.478869E+002	1.475990E+002
5.512121E+002	1.487193E+002
5.545374E+002	1.477822E+002
5.578626E+002	1.471795E+002
5.611879E+002	1.484206E+002
5.645131E+002	1.491478E+002
5.678383E+002	1.482133E+002
5.711636E+002	1.489824E+002
5.744888E+002	1.480742E+002
5.778141E+002	1.475827E+002
5.811393E+002	1.490797E+002
5.844645E+002	1.471462E+002
5.877898E+002	1.460055E+002
5.911150E+002	1.442187E+002
5.944403E+002	1.466726E+002
5.977655E+002	1.493635E+002
6.010907E+002	1.525435E+002
6.044160E+002	1.545233E+002
6.077412E+002	1.558412E+002
6.110665E+002	1.568139E+002
6.143917E+002	1.565204E+002
6.177169E+002	1.578466E+002
6.210422E+002	1.566779E+002
6.243674E+002	1.575155E+002
6.276927E+002	1.555833E+002
6.310179E+002	1.562095E+002
6.343431E+002	1.544663E+002
6.376684E+002	1.538523E+002
6.409936E+002	1.534792E+002
6.443188E+002	1.526673E+002
6.476441E+002	1.523170E+002
6.509693E+002	1.506331E+002
6.542946E+002	1.499937E+002
6.576198E+002	1.497671E+002
6.609450E+002	1.501492E+002
6.642703E+002	1.487566E+002
6.675955E+002	1.465635E+002
6.709208E+002	1.474866E+002
6.742460E+002	1.457855E+002
6.775712E+002	1.454093E+002
6.808965E+002	1.446180E+002
6.842217E+002	1.439169E+002
6.875470E+002	1.429961E+002
6.908722E+002	1.423932E+002
6.941974E+002	1.430287E+002
6.975227E+002	1.435848E+002
7.008479E+002	1.442856E+002
7.041732E+002	1.433682E+002
7.074984E+002	1.445427E+002
7.108236E+002	1.450776E+002
7.141489E+002	1.461411E+002
7.174741E+002	1.474822E+002
7.207994E+002	1.478631E+002
7.241246E+002	1.489125E+002
7.274498E+002	1.498412E+002
7.307751E+002	1.510335E+002
7.341003E+002	1.516432E+002
7.374256E+002	1.520856E+002
7.407508E+002	1.525339E+002
7.440760E+002	1.527873E+002
7.474013E+002	1.523167E+002
7.507265E+002	1.518415E+002
7.540518E+002	1.519604E+002
7.573770E+002	1.510427E+002
7.607022E+002	1.508191E+002
7.640275E+002	1.499441E+002
7.673527E+002	1.487213E+002
7.706780E+002	1.475131E+002
7.740032E+002	1.468723E+002
7.773284E+002	1.462433E+002
7.806537E+002	1.466551E+002
7.839789E+002	1.454283E+002
7.873042E+002	1.448729E+002
7.906294E+002	1.453432E+002
7.939546E+002	1.441883E+002
7.972799E+002	1.448967E+002
8.006051E+002	1.444951E+002
8.039304E+002	1.457852E+002
8.072556E+002	1.455493E+002
8.105808E+002	1.464864E+002
8.139061E+002	1.474376E+002
8.172313E+002	1.475898E+002
8.205565E+002	1.480712E+002
8.238818E+002	1.477719E+002
8.272070E+002	1.482122E+002
8.305323E+002	1.488450E+002
8.338575E+002	1.482830E+002
8.371827E+002	1.483885E+002
8.405080E+002	1.480419E+002
8.438332E+002	1.475607E+002
8.471585E+002	1.470811E+002
8.504837E+002	1.478384E+002
8.538089E+002	1.465092E+002
8.571342E+002	1.462563E+002
8.604594E+002	1.470589E+002
8.637847E+002	1.464353E+002
8.671099E+002	1.469697E+002
8.704351E+002	1.473819E+002
8.737604E+002	1.469144E+002
8.770856E+002	1.482048E+002
8.804109E+002	1.486927E+002
8.837361E+002	1.492572E+002
8.870613E+002	1.487903E+002
8.903866E+002	1.497077E+002
8.937118E+002	1.494654E+002
8.970371E+002	1.496944E+002
9.003623E+002	1.490490E+002
9.036875E+002	1.499602E+002
9.070128E+002	1.490885E+002
9.103380E+002	1.493681E+002
9.136633E+002	1.487088E+002
9.169885E+002	1.483845E+002
9.203137E+002	1.479153E+002
9.236390E+002	1.476370E+002
9.269642E+002	1.473454E+002
9.302895E+002	1.467254E+002
9.336147E+002	1.474559E+002
9.369399E+002	1.464500E+002
9.402652E+002	1.624229E+002
9.435904E+002	1.242972E+002
9.469157E+002	1.190850E+002
9.502409E+002	1.157234E+002
9.535661E+002	1.111407E+002
9.568914E+002	1.100722E+002
9.602166E+002	1.081480E+002
9.635419E+002	1.094818E+002
9.668671E+002	1.060630E+002
9.701923E+002	1.119002E+002
9.735176E+002	9.856112E+001
9.768428E+002	9.323126E+001
9.801681E+002	8.979964E+001
9.834933E+002	8.422559E+001
9.868185E+002	8.117188E+001
9.901438E+002	1.122378E+001
9.934690E+002	0.000000E+000
9.967942E+002	0.000000E+000
1.000119E+003	0.000000E+000